Wavelength,Intensity,Absorbance,Reflectance
901.5312346485773,25402,0.4166325,0.38314882
905.4730469626347,29101,0.4025803,0.3957489
909.4105705716245,32240,0.39695284,0.40091026
913.3438054755464,35628,0.39442003,0.4032552
917.2727516744008,38662,0.4032188,0.39516747
921.1974091681874,42727,0.40750432,0.39128724
925.1177779569063,46967,0.41889542,0.38115758
929.0338580405574,52111,0.42919242,0.37222674
932.945649419141,56310,0.44768107,0.356713
936.8531520926567,59981,0.4664094,0.34165722
940.7563660611048,62857,0.48344758,0.3285129
945.9539800333747,64729,0.5119592,0.30763856
949.8471870233316,65706,0.53242576,0.2934771
953.7361053082207,65889,0.55610764,0.27790242
957.6207348880421,66152,0.5781798,0.26413152
961.5010757627957,66789,0.5968628,0.2530097
965.3771279324817,67713,0.61290383,0.24383508
969.2488913971,68915,0.62697685,0.2360604
973.1163661566505,70510,0.63742954,0.23044668
976.9795522111334,72237,0.6458661,0.22601326
980.8384495605485,73702,0.6549767,0.22132134
984.6930582048959,75102,0.66264445,0.21744809
988.5433781441757,76539,0.6683911,0.21458972
992.3894093783878,78065,0.67216945,0.21273088
996.2311519075321,79450,0.67548764,0.21111172
1000.0686057316087,80622,0.67849135,0.20965666
1005.1785395113833,81848,0.68212867,0.20790806
1009.0059863569686,82979,0.6818262,0.20805293
1012.8291444974863,84227,0.6797395,0.20905499
1016.6480139329361,85131,0.677497,0.21013722
1020.4625946633183,86504,0.6719164,0.21285485
1024.2728866886328,86752,0.6713576,0.21312892
1028.0788900088796,87194,0.66835594,0.21460709
1031.8806046240588,87759,0.6636097,0.21696532
1035.6780305341701,88187,0.65940446,0.21907637
1039.4711677392138,88301,0.6562029,0.22069733
1043.26001623919,87718,0.6559741,0.22081365
1047.044576034098,87996,0.6509815,0.22336675
1050.8248471239388,87388,0.6503472,0.22369324
1054.6008295087117,87642,0.64534867,0.22628269
1058.3725231884168,87584,0.64217216,0.22794384
1063.394776775696,86755,0.6423146,0.22786908
1067.15646347691,86090,0.64323133,0.22738859
1070.9138614730562,86121,0.6403778,0.22888754
1074.6669707641345,86364,0.63724196,0.23054622
1078.4157913501454,85998,0.6378185,0.23024036
1082.1603232310886,85918,0.63720065,0.23056817
1085.9005664069637,85405,0.638541,0.22985768
1089.6365208777715,85544,0.6371071,0.23061785
1093.3681866435113,85251,0.63886756,0.2296849
1097.0955637041836,85268,0.6393317,0.22943956
1100.8186520597883,84830,0.6420612,0.22800209
1104.537451710325,84900,0.6424843,0.22778004
1108.2519626557942,84688,0.6449731,0.22647847
1111.9621848961956,84764,0.64508265,0.22642134
1115.6681184315294,84053,0.64978486,0.22398305
1120.6026918263133,83276,0.6557201,0.22094283
1124.2986183831558,82566,0.6611843,0.21818037
1127.9902562349305,81007,0.67070866,0.21344762
1131.6776053816375,78828,0.68387383,0.20707427
1135.3606658232768,74915,0.7069929,0.19633923
1139.0394375598485,72239,0.72427964,0.18867762
1142.7139205913522,68786,0.747063,0.17903464
1146.3841149177883,65389,0.77053434,0.16961555
1150.050020539157,62549,0.7915748,0.161594
1153.7116374554578,60219,0.8096564,0.15500426
1157.3689656666909,59617,0.8161853,0.15269144
1161.022005172856,58826,0.8243898,0.14983393
1164.6707559739539,58598,0.82856363,0.14840084
1168.315218069984,57656,0.83812207,0.14517035
1171.955391460946,57491,0.8423418,0.14376667
1176.8022846632348,57106,0.85043967,0.14111082
1180.432451075706,56293,0.8610448,0.13770674
1184.0583287831091,56603,0.863635,0.13688788
1187.6799177854446,56369,0.87105757,0.13456818
1191.2972180827126,56097,0.8794166,0.13200288
1194.9102296749127,55797,0.88865167,0.12922554
1198.5189525620451,55732,0.8956807,0.12715085
1202.12338674411,55711,0.9028814,0.12506005
1205.7235322211068,55730,0.9102382,0.12295941
1209.3193889930362,56236,0.9138221,0.12194889
1212.9109570598978,56455,0.91925186,0.12043373
1216.4982364216917,56853,0.9240453,0.11911177
1220.0812270784181,57043,0.93090814,0.117244326
1223.6599290300765,57663,0.93391496,0.11643539
1227.2343422766671,58003,0.9393771,0.11498015
1231.9935552864608,58216,0.94848937,0.11259281
1235.5579615545603,58986,0.9513887,0.11184364
1239.118079117592,59542,0.95508534,0.110895686
1242.6739079755562,60816,0.9531112,0.11140094
1246.2254481284526,60859,0.960525,0.10951536
1249.7726995762814,61685,0.9625072,0.10901665
1253.3156623190423,62766,0.9630161,0.10888898
1256.8543363567355,63532,0.96489173,0.10841971
1260.3887216893613,64247,0.9673475,0.107808374
1263.918818316919,64969,0.9698746,0.10718286
1267.4446262394092,65570,0.97263366,0.106504105
1270.9661454568318,66468,0.97388196,0.10619842
1274.4833759691865,67627,0.9731792,0.1063704
1277.9963177764735,68223,0.9766928,0.1055133
1281.5049708786928,68729,0.9816531,0.10431503
1286.176503695991,68663,0.9919139,0.10187933
1289.675149819719,69154,0.99609447,0.10090333
1293.1695072383795,68913,1.0039579,0.099092804
1296.659575951972,68775,1.0105681,0.09759597
1300.145355960497,68693,1.0164694,0.0962788
1303.6268472639542,67990,1.0264709,0.09408688
1307.1040498623438,66983,1.0373945,0.09174987
1310.5769637556657,66028,1.0468651,0.08977075
1314.0455889439197,64934,1.057602,0.08757858
1317.5099254271063,63488,1.0708045,0.08495628
1320.969973205225,62123,1.0831975,0.08256623
1324.425732278276,60532,1.0964196,0.080090396
1327.8772026462593,58726,1.1108549,0.077472076
1331.3243843091748,56903,1.1259612,0.07482363
1334.7672772670228,55736,1.1362247,0.07307608
1339.3511298918258,54372,1.1475526,0.071194656
1342.7840158711824,52397,1.1632494,0.0686674
1346.2126131454713,51050,1.1741923,0.06695881
1349.6369217146926,49164,1.1896513,0.06461729
1353.056941578846,47922,1.1987605,0.06327606
1356.4726727379316,46553,1.2095042,0.06172992
1359.8841151919498,45609,1.2163962,0.060758047
1363.2912689409002,44342,1.2264076,0.05937346
1366.6941339847829,42937,1.2373568,0.05789529
1370.0927103235977,41126,1.2529643,0.055851612
1373.486997957345,38459,1.2794834,0.052543208
1376.8769968860247,35810,1.3073753,0.049274776
1380.2627071096365,31976,1.3539326,0.04426571
1383.6441286281806,28770,1.3976779,0.04002415
1387.021261441657,25396,1.4506775,0.03542603
1391.5174338739648,22095,1.5096724,0.030926276
1394.8845597089498,18248,1.5909945,0.02564517
1398.2473968388674,16400,1.6360081,0.023120213
1401.605945263717,14614,1.6848812,0.02065945
1404.9602049834991,13391,1.7214315,0.018991902
1408.3101759982135,12222,1.7593402,0.01740443
1411.65585830786,11900,1.769463,0.017003449
1414.997251912439,11419,1.7862995,0.01635688
1418.3343568119503,10866,1.8068676,0.015600279
1421.6671730063938,10778,1.8092548,0.015514767
1424.9957004957696,11030,1.7980994,0.015918443
1428.3199392800775,10732,1.8092076,0.015516452
1431.639889359318,10635,1.8127286,0.015391162
1434.9555507334908,10922,1.8004776,0.01583151
1438.2669234025957,10312,1.8251781,0.014956221
1442.675415642408,10264,1.8266801,0.014904588
1445.9767813330218,10628,1.8110491,0.015450796
1449.2738583185678,10376,1.82078,0.01510845
1452.5666465990462,11002,1.7945504,0.016049061
1455.8551461744566,10430,1.8167483,0.015249363
1459.1393570447995,10882,1.7970973,0.015955217
1462.4192792100748,10621,1.8063065,0.01562045
1465.694912670282,10594,1.8060256,0.015630556
1468.9662574254219,10969,1.7893317,0.01624308
1472.233313475494,10823,1.7937403,0.016079023
1475.4960808204983,11185,1.7776824,0.016684666
1478.754559460435,11095,1.7797167,0.016606696
1482.008749395304,11336,1.7685982,0.017037341
1485.2586506251052,11598,1.7568454,0.017504698
1488.5042631498386,11549,1.7565137,0.017518073
1491.7455869695045,11769,1.7462689,0.017936228
1496.060680743398,12080,1.7322426,0.018524965
1499.2919975845725,11829,1.7390791,0.018235635
1502.5190257206796,12293,1.7200876,0.019050762
1505.7417651517185,12585,1.7075167,0.019610256
1508.96021587769,12813,1.6974556,0.02006986
1512.1743778985938,12896,1.6924111,0.020304345
1515.3842512144297,13356,1.6742153,0.021173114
1518.589835825198,13677,1.6610848,0.021823037
1521.7911317308985,13795,1.6544044,0.02216132
1524.9881389315315,14103,1.6419017,0.022808578
1528.1808574270967,14273,1.6339791,0.023228489
1531.3692872175943,14660,1.6190791,0.02403925
1534.553428303024,15234,1.5993719,0.025155218
1537.733280683386,15282,1.5945005,0.025438964
1540.9088443586804,16296,1.5633649,0.027329717
1545.1362579400788,15663,1.5759557,0.026548762
1548.3018146368818,15983,1.563225,0.027338518
1551.4630826286173,16032,1.5577943,0.02768252
1554.6200619152849,16604,1.5386167,0.028932324
1557.7727524968848,16805,1.5293707,0.029554892
1560.921154373417,16921,1.5218918,0.030068254
1564.0652675448816,16905,1.5178376,0.030350253
1567.2050920112786,17303,1.5031264,0.031395953
1570.3406277726076,17047,1.5046074,0.03128906
1573.471874828869,17744,1.4824672,0.03292554
1576.5988331800627,17877,1.4744749,0.033537067
1579.721502826189,17366,1.4822212,0.032944184
1582.839883767247,17174,1.48144,0.0330035
1585.9539760032378,17208,1.4753721,0.033467855
1589.0637795341606,17573,1.460508,0.034633152
1593.2035129230637,17208,1.4618154,0.03452905
1596.3033094754953,17429,1.4501176,0.035471734
1599.3988173228593,17180,1.4497683,0.03550027
1602.4900364651555,17155,1.4437633,0.035994545
1605.576966902384,17104,1.4384074,0.03644119
1608.6596086345448,17052,1.4324162,0.0369474
1611.7379616616379,16837,1.430123,0.037143007
1614.8120259836633,16478,1.4315394,0.037022058
1617.881801600621,16149,1.4321927,0.036966413
1620.947288512511,16296,1.4196508,0.03804952
1624.0084867193332,16256,1.4113526,0.038783528
1627.065396221088,15678,1.4179093,0.038202405
1630.1180170177747,15429,1.4162414,0.0383494
1633.1663491093939,15589,1.4029534,0.0395409
1636.2103924959454,15540,1.3952533,0.040248223
1640.2624456923531,15053,1.3965067,0.040132236
1643.2964821004132,14894,1.3916641,0.04058222
1646.3262298034058,14523,1.3927925,0.040476926
1649.3516888013305,14135,1.3937784,0.04038514
1652.3728590941876,13723,1.3949511,0.040276237
1655.389740681977,13788,1.3799474,0.041691992
1658.4023335646984,12786,1.3971717,0.040070828
1661.4106377423525,12696,1.3824759,0.041449964
1664.4146532149387,12330,1.3740046,0.042266414
1667.4143799824571,11407,1.3811873,0.041573122
1670.409818044908,10463,1.3841727,0.04128833
1673.4009674022911,9303,1.3915613,0.04059184
1676.3878280546066,8586,1.3742205,0.042245414
1679.3704000018543,7876,1.3518221,0.044481345
1682.3486832440344,6427,1.3734237,0.04232299
1686.3130562479469,5214,1.369822,0.04267544
1689.2813325116356,4685,1.3428607,0.045408726
1692.2453200702566,3425,1.4104041,0.038868334
1695.2050189238098,3167,1.376729,0.042002097
1698.1604290722955,2780,1.3679589,0.042858906
1701.1115505157134,2157,1.4184211,0.038157407
